 radius= 1.0000E+00 lambda= 5.3200E-01 x= 1.1810E+01

Qext= 2.8352E+00 Qsca= 2.8352E+00 Qabs= 0.0000E+00 <cos>= 8.1030E-01
                 Qbk = 1.7245E-02
  theta       S11           POL           S33           S34
   0.00   9.92273E+03  -0.00000E+00   9.92273E+03   0.00000E+00
   0.50   9.89647E+03   7.19362E-05   9.89647E+03  -7.94800E-01
   1.01   9.81804E+03   2.87507E-04   9.81804E+03  -3.15222E+00
   1.51   9.68852E+03   6.45849E-04   9.68852E+03  -6.99329E+00
   2.01   9.50968E+03   1.14547E-03   9.50967E+03  -1.21893E+01
   2.51   9.28395E+03   1.78462E-03   9.28391E+03  -1.85665E+01
   3.02   9.01435E+03   2.56091E-03   9.01428E+03  -2.59106E+01
   3.52   8.70446E+03   3.47080E-03   8.70434E+03  -3.39785E+01
   4.02   8.35836E+03   4.51129E-03   8.35817E+03  -4.25006E+01
   4.53   7.98050E+03   5.67692E-03   7.98021E+03  -5.11966E+01
   5.03   7.57566E+03   6.96325E-03   7.57524E+03  -5.97798E+01
   5.53   7.14884E+03   8.36384E-03   7.14827E+03  -6.79693E+01
   6.03   6.70517E+03   9.87209E-03   6.70442E+03  -7.55004E+01
   6.54   6.24985E+03   1.14802E-02   6.24890E+03  -8.21313E+01
   7.04   5.78800E+03   1.31787E-02   5.78683E+03  -8.76538E+01
   7.54   5.32462E+03   1.49579E-02   5.32323E+03  -9.18968E+01
   8.04   4.86450E+03   1.68056E-02   4.86289E+03  -9.47342E+01
   8.55   4.41214E+03   1.87081E-02   4.41032E+03  -9.60886E+01
   9.05   3.97170E+03   2.06498E-02   3.96970E+03  -9.59322E+01
   9.55   3.54694E+03   2.26123E-02   3.54478E+03  -9.42881E+01
  10.06   3.14117E+03   2.45736E-02   3.13889E+03  -9.12276E+01
  10.56   2.75722E+03   2.65069E-02   2.75488E+03  -8.68694E+01
  11.06   2.39742E+03   2.83806E-02   2.39508E+03  -8.13720E+01
  11.56   2.06362E+03   3.01531E-02   2.06132E+03  -7.49309E+01
  12.07   1.75714E+03   3.17732E-02   1.75494E+03  -6.77680E+01
  12.57   1.47881E+03   3.31719E-02   1.47677E+03  -6.01268E+01
  13.07   1.22899E+03   3.42583E-02   1.22716E+03  -5.22611E+01
  13.58   1.00761E+03   3.49048E-02   1.00601E+03  -4.44283E+01
  14.08   8.14160E+02   3.49348E-02   8.12827E+02  -3.68792E+01
  14.58   6.47794E+02   3.40941E-02   6.46729E+02  -2.98497E+01
  15.08   5.07325E+02   3.20173E-02   5.06517E+02  -2.35539E+01
  15.59   3.91297E+02   2.81884E-02   3.90719E+02  -1.81757E+01
  16.09   2.98028E+02   2.19179E-02   2.97633E+02  -1.38646E+01
  16.59   2.25660E+02   1.24230E-02   2.25387E+02  -1.07295E+01
  17.09   1.72207E+02  -7.74384E-04   1.71980E+02  -8.83691E+00
  17.60   1.35604E+02  -1.68498E-02   1.35336E+02  -8.20896E+00
  18.10   1.13749E+02  -3.24020E-02   1.13346E+02  -8.82301E+00
  18.60   1.04542E+02  -4.20303E-02   1.03909E+02  -1.06138E+01
  19.11   1.05924E+02  -4.23644E-02   1.04968E+02  -1.34755E+01
  19.61   1.15907E+02  -3.50176E-02   1.14542E+02  -1.72668E+01
  20.11   1.32602E+02  -2.42121E-02   1.30755E+02  -2.18157E+01
  20.61   1.54237E+02  -1.32906E-02   1.51855E+02  -2.69258E+01
  21.12   1.79183E+02  -3.81629E-03   1.76231E+02  -3.23838E+01
  21.62   2.05960E+02   3.81259E-03   2.02428E+02  -3.79667E+01
  22.12   2.33246E+02   9.70361E-03   2.29152E+02  -4.34493E+01
  22.63   2.59888E+02   1.41129E-02   2.55275E+02  -4.86125E+01
  23.13   2.84899E+02   1.73044E-02   2.79835E+02  -5.32502E+01
  23.63   3.07457E+02   1.95029E-02   3.02034E+02  -5.71763E+01
  24.13   3.26902E+02   2.08885E-02   3.21233E+02  -6.02309E+01
  24.64   3.42731E+02   2.16020E-02   3.36943E+02  -6.22856E+01
  25.14   3.54590E+02   2.17512E-02   3.48818E+02  -6.32471E+01
  25.64   3.62262E+02   2.14185E-02   3.56647E+02  -6.30607E+01
  26.15   3.65661E+02   2.06640E-02   3.60337E+02  -6.17113E+01
  26.65   3.64820E+02   1.95284E-02   3.59911E+02  -5.92239E+01
  27.15   3.59877E+02   1.80326E-02   3.55487E+02  -5.56624E+01
  27.65   3.51065E+02   1.61787E-02   3.47276E+02  -5.11273E+01
  28.16   3.38700E+02   1.39441E-02   3.35562E+02  -4.57519E+01
  28.66   3.23166E+02   1.12773E-02   3.20698E+02  -3.96975E+01
  29.16   3.04905E+02   8.09073E-03   3.03088E+02  -3.31483E+01
  29.66   2.84403E+02   4.24634E-03   2.83182E+02  -2.63043E+01
  30.17   2.62178E+02  -4.59665E-04   2.61461E+02  -1.93752E+01
  30.67   2.38765E+02  -6.32247E-03   2.38429E+02  -1.25727E+01
  31.17   2.14706E+02  -1.37666E-02   2.14599E+02  -6.10354E+00
  31.68   1.90536E+02  -2.33961E-02   1.90484E+02  -1.62186E-01
  32.18   1.66773E+02  -3.60726E-02   1.66587E+02   5.07550E+00
  32.68   1.43904E+02  -5.30191E-02   1.43390E+02   9.45836E+00
  33.18   1.22378E+02  -7.59649E-02   1.21344E+02   1.28651E+01
  33.69   1.02592E+02  -1.07312E-01   1.00860E+02   1.52085E+01
  34.19   8.48873E+01  -1.50272E-01   8.22978E+01   1.64380E+01
  34.69   6.95381E+01  -2.08777E-01   6.59631E+01   1.65421E+01
  35.20   5.67491E+01  -2.86668E-01   5.20967E+01   1.55480E+01
  35.70   4.66508E+01  -3.85269E-01   4.08711E+01   1.35210E+01
  36.20   3.92973E+01  -4.98564E-01   3.23862E+01   1.05621E+01
  36.70   3.46669E+01  -6.08045E-01   2.66677E+01   6.80440E+00
  37.21   3.26641E+01  -6.85256E-01   2.36671E+01   2.40845E+00
  37.71   3.31239E+01  -7.08034E-01   2.32634E+01  -2.44360E+00
  38.21   3.58179E+01  -6.76661E-01   2.52674E+01  -7.55442E+00
  38.72   4.04626E+01  -6.10127E-01   2.94278E+01  -1.27186E+01
  39.22   4.67286E+01  -5.29969E-01   3.54389E+01  -1.77301E+01
  39.72   5.42518E+01  -4.50459E-01   4.29504E+01  -2.23896E+01
  40.22   6.26452E+01  -3.78158E-01   5.15783E+01  -2.65120E+01
  40.73   7.15116E+01  -3.14862E-01   6.09176E+01  -2.99328E+01
  41.23   8.04563E+01  -2.60152E-01   7.05543E+01  -3.25146E+01
  41.73   8.90997E+01  -2.12840E-01   8.00798E+01  -3.41519E+01
  42.23   9.70894E+01  -1.71632E-01   8.91031E+01  -3.47750E+01
  42.74   1.04111E+02  -1.35378E-01   9.72639E+01  -3.43531E+01
  43.24   1.09897E+02  -1.03145E-01   1.04244E+02  -3.28948E+01
  43.74   1.14236E+02  -7.42184E-02   1.09777E+02  -3.04482E+01
  44.25   1.16978E+02  -4.80800E-02   1.13656E+02  -2.70992E+01
  44.75   1.18035E+02  -2.43860E-02   1.15743E+02  -2.29678E+01
  45.25   1.17388E+02  -2.95654E-03   1.15967E+02  -1.82043E+01
  45.75   1.15080E+02   1.62318E-02   1.14330E+02  -1.29827E+01
  46.26   1.11215E+02   3.30326E-02   1.10902E+02  -7.49491E+00
  46.76   1.05955E+02   4.71047E-02   1.05819E+02  -1.94257E+00
  47.26   9.95054E+01   5.78667E-02   9.92780E+01   3.47022E+00
  47.77   9.21128E+01   6.44282E-02   9.15234E+01   8.54493E+00
  48.27   8.40509E+01   6.54875E-02   8.28416E+01   1.30965E+01
  48.77   7.56098E+01   5.91985E-02   7.35469E+01   1.69605E+01
  49.27   6.70848E+01   4.30014E-02   6.39693E+01   1.99993E+01
  49.78   5.87644E+01   1.34585E-02   5.44415E+01   2.21079E+01
  50.28   5.09196E+01  -3.38145E-02   4.52855E+01   2.32178E+01
  50.78   4.37935E+01  -1.03880E-01   3.68007E+01   2.32998E+01
  51.28   3.75926E+01  -2.01396E-01   2.92523E+01   2.23649E+01
  51.79   3.24803E+01  -3.28053E-01   2.28618E+01   2.04639E+01
  52.29   2.85709E+01  -4.78263E-01   1.77989E+01   1.76856E+01
  52.79   2.59274E+01  -6.34893E-01   1.41763E+01   1.41525E+01
  53.30   2.45602E+01  -7.70127E-01   1.20463E+01   1.00166E+01
  53.80   2.44286E+01  -8.55796E-01   1.14004E+01   5.45253E+00
  54.30   2.54440E+01  -8.77800E-01   1.21710E+01   6.50686E-01
  54.80   2.74754E+01  -8.41596E-01   1.42357E+01  -4.19044E+00
  55.31   3.03560E+01  -7.64925E-01   1.74239E+01  -8.87250E+00
  55.81   3.38914E+01  -6.66941E-01   2.15250E+01  -1.32053E+01
  56.31   3.78688E+01  -5.62016E-01   2.62981E+01  -1.70144E+01
  56.82   4.20662E+01  -4.58753E-01   3.14832E+01  -2.01484E+01
  57.32   4.62623E+01  -3.61386E-01   3.68119E+01  -2.24849E+01
  57.82   5.02457E+01  -2.71486E-01   4.20198E+01  -2.39352E+01
  58.32   5.38234E+01  -1.89224E-01   4.68564E+01  -2.44480E+01
  58.83   5.68281E+01  -1.14145E-01   5.10963E+01  -2.40109E+01
  59.33   5.91248E+01  -4.55960E-02   5.45473E+01  -2.26510E+01
  59.83   6.06147E+01   1.70511E-02   5.70575E+01  -2.04333E+01
  60.34   6.12386E+01   7.42816E-02   5.85210E+01  -1.74575E+01
  60.84   6.09774E+01   1.26374E-01   5.88806E+01  -1.38540E+01
  61.34   5.98516E+01   1.73351E-01   5.81288E+01  -9.77757E+00
  61.84   5.79185E+01   2.14930E-01   5.63064E+01  -5.40119E+00
  62.35   5.52684E+01   2.50456E-01   5.34992E+01  -9.08310E-01
  62.85   5.20191E+01   2.78810E-01   4.98326E+01   3.51491E+00
  63.35   4.83097E+01   2.98292E-01   4.54650E+01   7.68741E+00
  63.85   4.42931E+01   3.06472E-01   4.05798E+01   1.14409E+01
  64.36   4.01292E+01   3.00029E-01   3.53759E+01   1.46266E+01
  64.86   3.59770E+01   2.74644E-01   3.00592E+01   1.71217E+01
  65.36   3.19875E+01   2.25055E-01   2.48327E+01   1.88339E+01
  65.87   2.82978E+01   1.45533E-01   1.98878E+01   1.97048E+01
  66.37   2.50247E+01   3.11651E-02   1.53963E+01   1.97125E+01
  66.87   2.22613E+01  -1.19697E-01   1.15035E+01   1.88715E+01
  67.37   2.00730E+01  -3.01897E-01   8.32284E+00   1.72318E+01
  67.88   1.84966E+01  -5.00320E-01   5.93182E+00   1.48761E+01
  68.38   1.75395E+01  -6.90185E-01   4.37031E+00   1.19160E+01
  68.88   1.71810E+01  -8.43280E-01   3.64009E+00   8.48666E+00
  69.39   1.73748E+01  -9.38111E-01   3.70647E+00   4.74049E+00
  69.89   1.80521E+01  -9.67292E-01   4.50136E+00   8.40592E-01
  70.39   1.91265E+01  -9.37322E-01   5.92785E+00  -3.04654E+00
  70.89   2.04985E+01  -8.62587E-01   7.86585E+00  -6.75819E+00
  71.40   2.20614E+01  -7.58800E-01   1.01787E+01  -1.01423E+01
  71.90   2.37062E+01  -6.39075E-01   1.27200E+01  -1.30638E+01
  72.40   2.53275E+01  -5.12760E-01   1.53412E+01  -1.54101E+01
  72.91   2.68278E+01  -3.85830E-01   1.78980E+01  -1.70953E+01
  73.41   2.81222E+01  -2.61797E-01   2.02575E+01  -1.80635E+01
  73.91   2.91418E+01  -1.42585E-01   2.23032E+01  -1.82906E+01
  74.41   2.98356E+01  -2.92154E-02   2.39400E+01  -1.77842E+01
  74.92   3.01725E+01   7.77129E-02   2.50975E+01  -1.65830E+01
  75.42   3.01414E+01   1.77691E-01   2.57321E+01  -1.47540E+01
  75.92   2.97506E+01   2.70065E-01   2.58273E+01  -1.23893E+01
  76.42   2.90259E+01   3.53855E-01   2.53936E+01  -9.60103E+00
  76.93   2.80085E+01   4.27599E-01   2.44660E+01  -6.51612E+00
  77.43   2.67517E+01   4.89228E-01   2.31013E+01  -3.27053E+00
  77.93   2.53172E+01   5.35956E-01   2.13739E+01  -2.96354E-03
  78.44   2.37716E+01   5.64244E-01   1.93714E+01   3.15123E+00
  78.94   2.21824E+01   5.69870E-01   1.71892E+01   6.06582E+00
  79.44   2.06143E+01   5.48218E-01   1.49256E+01   8.62890E+00
  79.94   1.91258E+01   4.94882E-01   1.26769E+01   1.07473E+01
  80.45   1.77665E+01   4.06645E-01   1.05322E+01   1.23502E+01
  80.95   1.65752E+01   2.82809E-01   8.56989E+00   1.33910E+01
  81.45   1.55778E+01   1.26551E-01   6.85419E+00   1.38493E+01
  81.96   1.47876E+01  -5.42222E-02   5.43273E+00   1.37301E+01
  82.46   1.42045E+01  -2.47182E-01   4.33528E+00   1.30631E+01
  82.96   1.38165E+01  -4.37312E-01   3.57340E+00   1.19004E+01
  83.46   1.36012E+01  -6.09674E-01   3.14105E+00   1.03133E+01
  83.97   1.35273E+01  -7.52174E-01   3.01612E+00   8.38828E+00
  84.47   1.35580E+01  -8.57271E-01   3.16276E+00   6.22293E+00
  84.97   1.36527E+01  -9.22232E-01   3.53425E+00   3.92084E+00
  85.47   1.37703E+01  -9.48202E-01   4.07637E+00   1.58688E+00
  85.98   1.38718E+01  -9.38778E-01   4.73088E+00  -6.77492E-01
  86.48   1.39226E+01  -8.98639E-01   5.43908E+00  -2.77859E+00
  86.98   1.38947E+01  -8.32559E-01   6.14518E+00  -4.63434E+00
  87.49   1.37677E+01  -7.44842E-01   6.79926E+00  -6.17738E+00
  87.99   1.35306E+01  -6.39115E-01   7.35969E+00  -7.35735E+00
  88.49   1.31813E+01  -5.18363E-01   7.79504E+00  -8.14235E+00
  88.99   1.27269E+01  -3.85137E-01   8.08513E+00  -8.51938E+00
  89.50   1.21829E+01  -2.41887E-01   8.22141E+00  -8.49397E+00
  90.00   1.15715E+01  -9.13820E-02   8.20668E+00  -8.08894E+00
  90.50   1.09201E+01   6.27640E-02   8.05399E+00  -7.34244E+00
  91.01   1.02594E+01   2.15540E-01   7.78513E+00  -6.30529E+00
  91.51   9.62105E+00   3.60049E-01   7.42856E+00  -5.03800E+00
  92.01   9.03556E+00   4.87331E-01   7.01704E+00  -3.60741E+00
  92.51   8.53012E+00   5.86851E-01   6.58513E+00  -2.08324E+00
  93.02   8.12684E+00   6.47984E-01   6.16671E+00  -5.34685E-01
  93.52   7.84126E+00   6.62483E-01   5.79261E+00   9.72714E-01
  94.02   7.68130E+00   6.27247E-01   5.48860E+00   2.37989E+00
  94.53   7.64669E+00   5.46061E-01   5.27372E+00   3.63654E+00
  95.03   7.72900E+00   4.29164E-01   5.15923E+00   4.70290E+00
  95.53   7.91209E+00   2.90643E-01   5.14797E+00   5.55081E+00
  96.03   8.17314E+00   1.44927E-01   5.23444E+00   6.16423E+00
  96.54   8.48398E+00   3.95797E-03   5.40538E+00   6.53902E+00
  97.04   8.81293E+00  -1.24127E-01   5.64080E+00   6.68224E+00
  97.54   9.12665E+00  -2.34938E-01   5.91559E+00   6.61089E+00
  98.04   9.39226E+00  -3.27015E-01   6.20128E+00   6.35020E+00
  98.55   9.57936E+00  -4.00816E-01   6.46814E+00   5.93170E+00
  99.05   9.66189E+00  -4.57855E-01   6.68724E+00   5.39105E+00
  99.55   9.61981E+00  -5.00092E-01   6.83253E+00   4.76587E+00
 100.06   9.44030E+00  -5.29550E-01   6.88263E+00   4.09359E+00
 100.56   9.11864E+00  -5.48107E-01   6.82238E+00   3.40951E+00
 101.06   8.65856E+00  -5.57402E-01   6.64392E+00   2.74513E+00
 101.56   8.07207E+00  -5.58801E-01   6.34733E+00   2.12684E+00
 102.07   7.37888E+00  -5.53397E-01   5.94077E+00   1.57495E+00
 102.57   6.60525E+00  -5.42030E-01   5.44003E+00   1.10327E+00
 103.07   5.78258E+00  -5.25306E-01   4.86767E+00   7.18925E-01
 103.58   4.94558E+00  -5.03622E-01   4.25164E+00   4.22747E-01
 104.08   4.13039E+00  -4.77219E-01   3.62364E+00   2.09901E-01
 104.58   3.37246E+00  -4.46288E-01   3.01714E+00   7.08521E-02
 105.08   2.70461E+00  -4.11238E-01   2.46532E+00  -7.48128E-03
 105.59   2.15520E+00  -3.73310E-01   1.99898E+00  -4.04403E-02
 106.09   1.74651E+00  -3.35589E-01   1.64463E+00  -4.42981E-02
 106.59   1.49358E+00  -3.03438E-01   1.42273E+00  -3.49900E-02
 107.09   1.40338E+00  -2.81529E-01   1.34635E+00  -2.69580E-02
 107.60   1.47450E+00  -2.67913E-01   1.42023E+00  -3.21880E-02
 108.10   1.69730E+00  -2.54438E-01   1.64036E+00  -5.94922E-02
 108.60   2.05451E+00  -2.34426E-01   1.99400E+00  -1.14054E-01
 109.11   2.52232E+00  -2.06005E-01   2.46033E+00  -1.97270E-01
 109.61   3.07175E+00  -1.69978E-01   3.01146E+00  -3.06864E-01
 110.11   3.67035E+00  -1.27622E-01   3.61398E+00  -4.37267E-01
 110.61   4.28405E+00  -7.98754E-02   4.23076E+00  -5.80215E-01
 111.12   4.87910E+00  -2.72522E-02   4.82303E+00  -7.25518E-01
 111.62   5.42393E+00   3.00626E-02   5.35252E+00  -8.61935E-01
 112.12   5.89084E+00   9.20993E-02   5.78367E+00  -9.78115E-01
 112.63   6.25750E+00   1.59013E-01   6.08566E+00  -1.06349E+00
 113.13   6.50804E+00   2.31007E-01   6.23411E+00  -1.10914E+00
 113.63   6.63374E+00   3.08256E-01   6.21260E+00  -1.10844E+00
 114.13   6.63335E+00   3.90797E-01   6.01354E+00  -1.05764E+00
 114.64   6.51285E+00   4.78387E-01   5.63876E+00  -9.56179E-01
 115.14   6.28493E+00   5.70270E-01   5.09938E+00  -8.06756E-01
 115.64   5.96793E+00   6.64836E-01   4.41532E+00  -6.15243E-01
 116.15   5.58456E+00   7.59127E-01   3.61421E+00  -3.90342E-01
 116.65   5.16036E+00   8.48156E-01   2.72993E+00  -1.43082E-01
 117.15   4.72200E+00   9.24110E-01   1.80080E+00   1.13834E-01
 117.65   4.29559E+00   9.75667E-01   8.67489E-01   3.66783E-01
 118.16   3.90506E+00   9.88017E-01  -2.91596E-02   6.02016E-01
 118.66   3.57067E+00   9.44605E-01  -8.50318E-01   8.06451E-01
 119.16   3.30789E+00   8.31582E-01  -1.56126E+00   9.68410E-01
 119.66   3.12652E+00   6.44631E-01  -2.13318E+00   1.07825E+00
 120.17   3.03025E+00   3.94949E-01  -2.54475E+00   1.12888E+00
 120.67   3.01664E+00   1.09289E-01  -2.78314E+00   1.11605E+00
 121.17   3.07750E+00  -1.78024E-01  -2.84469E+00   1.03855E+00
 121.68   3.19967E+00  -4.36531E-01  -2.73501E+00   8.98168E-01
 122.18   3.36610E+00  -6.47308E-01  -2.46856E+00   6.99460E-01
 122.68   3.55724E+00  -8.03822E-01  -2.06782E+00   4.49425E-01
 123.18   3.75254E+00  -9.08288E-01  -1.56199E+00   1.57021E-01
 123.69   3.93206E+00  -9.67158E-01  -9.85317E-01  -1.67398E-01
 124.19   4.07801E+00  -9.87789E-01  -3.75256E-01  -5.12682E-01
 124.69   4.17615E+00  -9.76641E-01   2.29599E-01  -8.67486E-01
 125.20   4.21695E+00  -9.38591E-01   7.91552E-01  -1.22082E+00
 125.70   4.19641E+00  -8.76886E-01   1.27578E+00  -1.56253E+00
 126.20   4.11651E+00  -7.93437E-01   1.65210E+00  -1.88367E+00
 126.70   3.98522E+00  -6.89355E-01   1.89647E+00  -2.17672E+00
 127.21   3.81610E+00  -5.65780E-01   1.99204E+00  -2.43573E+00
 127.71   3.62745E+00  -4.25133E-01   1.92990E+00  -2.65624E+00
 128.21   3.44114E+00  -2.72860E-01   1.70930E+00  -2.83515E+00
 128.72   3.28111E+00  -1.19379E-01   1.33740E+00  -2.97046E+00
 129.22   3.17170E+00   1.89304E-02   8.28641E-01  -3.06095E+00
 129.72   3.13584E+00   1.21694E-01   2.03719E-01  -3.10586E+00
 130.22   3.19329E+00   1.70765E-01  -5.11762E-01  -3.10449E+00
 130.73   3.35907E+00   1.58388E-01  -1.28885E+00  -3.05600E+00
 131.23   3.64203E+00   9.13323E-02  -2.09693E+00  -2.95916E+00
 131.73   4.04387E+00  -1.27265E-02  -2.90541E+00  -2.81227E+00
 132.23   4.55858E+00  -1.33378E-01  -3.68536E+00  -2.61326E+00
 132.74   5.17232E+00  -2.54115E-01  -4.41094E+00  -2.35985E+00
 133.24   5.86384E+00  -3.64682E-01  -5.06058E+00  -2.04993E+00
 133.74   6.60547E+00  -4.60260E-01  -5.61782E+00  -1.68203E+00
 134.25   7.36443E+00  -5.39590E-01  -6.07180E+00  -1.25585E+00
 134.75   8.10470E+00  -6.03283E-01  -6.41734E+00  -7.72947E-01
 135.25   8.78910E+00  -6.52680E-01  -6.65470E+00  -2.37280E-01
 135.75   9.38156E+00  -6.89200E-01  -6.78889E+00   3.44154E-01
 136.26   9.84942E+00  -7.13994E-01  -6.82882E+00   9.60903E-01
 136.76   1.01657E+01  -7.27769E-01  -6.78611E+00   1.59875E+00
 137.26   1.03112E+01  -7.30684E-01  -6.67383E+00   2.23962E+00
 137.77   1.02757E+01  -7.22258E-01  -6.50523E+00   2.86182E+00
 138.27   1.00596E+01  -7.01258E-01  -6.29244E+00   3.44041E+00
 138.77   9.67417E+00  -6.65546E-01  -6.04541E+00   3.94804E+00
 139.27   9.14150E+00  -6.11889E-01  -5.77104E+00   4.35591E+00
 139.78   8.49372E+00  -5.35780E-01  -5.47264E+00   4.63508E+00
 140.28   7.77161E+00  -4.31399E-01  -5.14970E+00   4.75796E+00
 140.78   7.02259E+00  -2.92073E-01  -4.79803E+00   4.69986E+00
 141.28   6.29826E+00  -1.11930E-01  -4.41032E+00   4.44074E+00
 141.79   5.65144E+00   1.10160E-01  -3.97698E+00   3.96671E+00
 142.29   5.13316E+00   3.63682E-01  -3.48726E+00   3.27159E+00
 142.79   4.78952E+00   6.19038E-01  -2.93061E+00   2.35806E+00
 143.30   4.65867E+00   8.28235E-01  -2.29811E+00   1.23859E+00
 143.80   4.76817E+00   9.43116E-01  -1.58394E+00  -6.41814E-02
 144.30   5.13283E+00   9.42925E-01  -7.86754E-01  -1.51743E+00
 144.80   5.75320E+00   8.44618E-01   8.92055E-02  -3.07880E+00
 145.31   6.61479E+00   6.86500E-01   1.03324E+00  -4.69752E+00
 145.81   7.68822E+00   5.05484E-01   2.02775E+00  -6.31616E+00
 146.31   8.93018E+00   3.26001E-01   3.04822E+00  -7.87280E+00
 146.82   1.02853E+01   1.60159E-01   4.06372E+00  -9.30374E+00
 147.32   1.16888E+01   1.19405E-02   5.03788E+00  -1.05465E+01
 147.82   1.30699E+01  -1.18938E-01   5.93031E+00  -1.15428E+01
 148.32   1.43558E+01  -2.34587E-01   6.69847E+00  -1.22425E+01
 148.83   1.54758E+01  -3.37662E-01   7.29984E+00  -1.26058E+01
 149.33   1.63658E+01  -4.30769E-01   7.69435E+00  -1.26070E+01
 149.83   1.69726E+01  -5.16218E-01   7.84687E+00  -1.22365E+01
 150.34   1.72578E+01  -5.95928E-01   7.72962E+00  -1.15029E+01
 150.84   1.72013E+01  -6.71368E-01   7.32447E+00  -1.04341E+01
 151.34   1.68036E+01  -7.43447E-01   6.62487E+00  -9.07784E+00
 151.84   1.60877E+01  -8.12299E-01   5.63725E+00  -7.50085E+00
 152.35   1.50996E+01  -8.76850E-01   4.38198E+00  -5.78761E+00
 152.85   1.39072E+01  -9.34029E-01   2.89355E+00  -4.03790E+00
 153.35   1.25990E+01  -9.77460E-01   1.22011E+00  -2.36358E+00
 153.85   1.12804E+01  -9.95604E-01  -5.77736E-01  -8.84543E-01
 154.36   1.00701E+01  -9.70090E-01  -2.42885E+00   2.75909E-01
 154.86   9.09476E+00  -8.77048E-01  -4.25409E+00   9.96104E-01
