 Complex refractive index= 1.500E+00 +-1.000E-01*i
 radius= 1.0000E+00 lambda= 6.2832E+00 x= 1.0000E+00

Qext=-6.6988E-02 Qsca= 2.4130E-01 Qabs=-3.0828E-01 <cos>= 1.9036E-01
                 Qbk = 2.1532E-01
  theta       S11         S12=S21       S33=S44      S34=-S43       P
   0.00   1.35624E-01   0.00000E+00   1.35624E-01   0.00000E+00 -0.00000
   0.50   1.35617E-01  -4.70877E-06   1.35617E-01  -1.85333E-07  0.00003
   1.01   1.35596E-01  -1.88351E-05   1.35596E-01  -7.41798E-07  0.00014
   1.51   1.35561E-01  -4.23715E-05   1.35561E-01  -1.66846E-06  0.00031
   2.01   1.35513E-01  -7.53254E-05   1.35513E-01  -2.96626E-06  0.00056
   2.51   1.35450E-01  -1.17637E-04   1.35450E-01  -4.63286E-06  0.00087
   3.02   1.35374E-01  -1.69344E-04   1.35374E-01  -6.66874E-06  0.00125
   3.52   1.35284E-01  -2.30372E-04   1.35284E-01  -9.07388E-06  0.00170
   4.02   1.35180E-01  -3.00743E-04   1.35180E-01  -1.18450E-05  0.00222
   4.53   1.35062E-01  -3.80352E-04   1.35062E-01  -1.49827E-05  0.00282
   5.03   1.34931E-01  -4.69252E-04   1.34930E-01  -1.84868E-05  0.00348
   5.53   1.34786E-01  -5.67317E-04   1.34785E-01  -2.23522E-05  0.00421
   6.03   1.34627E-01  -6.74553E-04   1.34625E-01  -2.65804E-05  0.00501
   6.54   1.34455E-01  -7.90909E-04   1.34453E-01  -3.11695E-05  0.00588
   7.04   1.34269E-01  -9.16302E-04   1.34266E-01  -3.61172E-05  0.00682
   7.54   1.34070E-01  -1.05069E-03   1.34066E-01  -4.14201E-05  0.00784
   8.04   1.33858E-01  -1.19402E-03   1.33852E-01  -4.70784E-05  0.00892
   8.55   1.33632E-01  -1.34622E-03   1.33625E-01  -5.30886E-05  0.01007
   9.05   1.33393E-01  -1.50720E-03   1.33385E-01  -5.94486E-05  0.01130
   9.55   1.33141E-01  -1.67692E-03   1.33131E-01  -6.61560E-05  0.01260
  10.06   1.32876E-01  -1.85528E-03   1.32863E-01  -7.32075E-05  0.01396
  10.56   1.32599E-01  -2.04220E-03   1.32583E-01  -8.06018E-05  0.01540
  11.06   1.32308E-01  -2.23759E-03   1.32289E-01  -8.83341E-05  0.01691
  11.56   1.32005E-01  -2.44137E-03   1.31982E-01  -9.64021E-05  0.01849
  12.07   1.31689E-01  -2.65345E-03   1.31662E-01  -1.04803E-04  0.02015
  12.57   1.31360E-01  -2.87370E-03   1.31329E-01  -1.13534E-04  0.02188
  13.07   1.31019E-01  -3.10208E-03   1.30983E-01  -1.22589E-04  0.02368
  13.58   1.30666E-01  -3.33842E-03   1.30624E-01  -1.31967E-04  0.02555
  14.08   1.30301E-01  -3.58266E-03   1.30252E-01  -1.41664E-04  0.02750
  14.58   1.29924E-01  -3.83465E-03   1.29868E-01  -1.51675E-04  0.02951
  15.08   1.29535E-01  -4.09430E-03   1.29470E-01  -1.61997E-04  0.03161
  15.59   1.29135E-01  -4.36148E-03   1.29061E-01  -1.72625E-04  0.03377
  16.09   1.28722E-01  -4.63608E-03   1.28639E-01  -1.83555E-04  0.03602
  16.59   1.28299E-01  -4.91796E-03   1.28204E-01  -1.94785E-04  0.03833
  17.09   1.27864E-01  -5.20699E-03   1.27758E-01  -2.06307E-04  0.04072
  17.60   1.27418E-01  -5.50309E-03   1.27299E-01  -2.18119E-04  0.04319
  18.10   1.26961E-01  -5.80605E-03   1.26828E-01  -2.30215E-04  0.04573
  18.60   1.26493E-01  -6.11577E-03   1.26345E-01  -2.42592E-04  0.04835
  19.11   1.26015E-01  -6.43212E-03   1.25850E-01  -2.55243E-04  0.05104
  19.61   1.25526E-01  -6.75492E-03   1.25344E-01  -2.68163E-04  0.05381
  20.11   1.25027E-01  -7.08406E-03   1.24826E-01  -2.81349E-04  0.05666
  20.61   1.24518E-01  -7.41939E-03   1.24296E-01  -2.94795E-04  0.05958
  21.12   1.23999E-01  -7.76074E-03   1.23755E-01  -3.08495E-04  0.06259
  21.62   1.23470E-01  -8.10798E-03   1.23203E-01  -3.22444E-04  0.06567
  22.12   1.22931E-01  -8.46092E-03   1.22639E-01  -3.36638E-04  0.06883
  22.63   1.22384E-01  -8.81944E-03   1.22065E-01  -3.51069E-04  0.07206
  23.13   1.21826E-01  -9.18336E-03   1.21479E-01  -3.65733E-04  0.07538
  23.63   1.21260E-01  -9.55252E-03   1.20883E-01  -3.80624E-04  0.07878
  24.13   1.20686E-01  -9.92675E-03   1.20276E-01  -3.95736E-04  0.08225
  24.64   1.20102E-01  -1.03059E-02   1.19658E-01  -4.11063E-04  0.08581
  25.14   1.19510E-01  -1.06898E-02   1.19030E-01  -4.26601E-04  0.08945
  25.64   1.18910E-01  -1.10783E-02   1.18392E-01  -4.42341E-04  0.09317
  26.15   1.18302E-01  -1.14712E-02   1.17744E-01  -4.58279E-04  0.09696
  26.65   1.17686E-01  -1.18683E-02   1.17085E-01  -4.74407E-04  0.10085
  27.15   1.17063E-01  -1.22694E-02   1.16417E-01  -4.90721E-04  0.10481
  27.65   1.16432E-01  -1.26745E-02   1.15739E-01  -5.07214E-04  0.10886
  28.16   1.15794E-01  -1.30832E-02   1.15051E-01  -5.23879E-04  0.11299
  28.66   1.15149E-01  -1.34955E-02   1.14354E-01  -5.40711E-04  0.11720
  29.16   1.14497E-01  -1.39111E-02   1.13647E-01  -5.57703E-04  0.12150
  29.66   1.13838E-01  -1.43299E-02   1.12931E-01  -5.74847E-04  0.12588
  30.17   1.13174E-01  -1.47517E-02   1.12207E-01  -5.92138E-04  0.13035
  30.67   1.12503E-01  -1.51763E-02   1.11473E-01  -6.09569E-04  0.13490
  31.17   1.11826E-01  -1.56035E-02   1.10731E-01  -6.27134E-04  0.13953
  31.68   1.11144E-01  -1.60332E-02   1.09980E-01  -6.44825E-04  0.14426
  32.18   1.10456E-01  -1.64651E-02   1.09220E-01  -6.62638E-04  0.14906
  32.68   1.09763E-01  -1.68991E-02   1.08452E-01  -6.80564E-04  0.15396
  33.18   1.09065E-01  -1.73350E-02   1.07677E-01  -6.98596E-04  0.15894
  33.69   1.08363E-01  -1.77726E-02   1.06893E-01  -7.16729E-04  0.16401
  34.19   1.07655E-01  -1.82117E-02   1.06101E-01  -7.34955E-04  0.16917
  34.69   1.06943E-01  -1.86521E-02   1.05302E-01  -7.53268E-04  0.17441
  35.20   1.06228E-01  -1.90938E-02   1.04495E-01  -7.71660E-04  0.17974
  35.70   1.05508E-01  -1.95363E-02   1.03681E-01  -7.90124E-04  0.18516
  36.20   1.04785E-01  -1.99797E-02   1.02859E-01  -8.08656E-04  0.19067
  36.70   1.04058E-01  -2.04236E-02   1.02031E-01  -8.27245E-04  0.19627
  37.21   1.03328E-01  -2.08680E-02   1.01195E-01  -8.45888E-04  0.20196
  37.71   1.02595E-01  -2.13126E-02   1.00353E-01  -8.64576E-04  0.20774
  38.21   1.01859E-01  -2.17573E-02   9.95045E-02  -8.83302E-04  0.21360
  38.72   1.01121E-01  -2.22018E-02   9.86494E-02  -9.02060E-04  0.21956
  39.22   1.00380E-01  -2.26461E-02   9.77881E-02  -9.20843E-04  0.22560
  39.72   9.96375E-02  -2.30898E-02   9.69207E-02  -9.39643E-04  0.23174
  40.22   9.88929E-02  -2.35329E-02   9.60473E-02  -9.58455E-04  0.23796
  40.73   9.81466E-02  -2.39751E-02   9.51682E-02  -9.77272E-04  0.24428
  41.23   9.73989E-02  -2.44163E-02   9.42836E-02  -9.96086E-04  0.25068
  41.73   9.66499E-02  -2.48563E-02   9.33935E-02  -1.01489E-03  0.25718
  42.23   9.58999E-02  -2.52950E-02   9.24981E-02  -1.03368E-03  0.26376
  42.74   9.51492E-02  -2.57320E-02   9.15976E-02  -1.05244E-03  0.27044
  43.24   9.43978E-02  -2.61674E-02   9.06921E-02  -1.07118E-03  0.27720
  43.74   9.36461E-02  -2.66009E-02   8.97819E-02  -1.08988E-03  0.28406
  44.25   9.28942E-02  -2.70323E-02   8.88671E-02  -1.10854E-03  0.29100
  44.75   9.21424E-02  -2.74615E-02   8.79478E-02  -1.12715E-03  0.29803
  45.25   9.13908E-02  -2.78883E-02   8.70242E-02  -1.14570E-03  0.30515
  45.75   9.06397E-02  -2.83126E-02   8.60964E-02  -1.16419E-03  0.31236
  46.26   8.98893E-02  -2.87341E-02   8.51647E-02  -1.18261E-03  0.31966
  46.76   8.91397E-02  -2.91528E-02   8.42292E-02  -1.20095E-03  0.32705
  47.26   8.83912E-02  -2.95684E-02   8.32900E-02  -1.21921E-03  0.33452
  47.77   8.76440E-02  -2.99809E-02   8.23474E-02  -1.23739E-03  0.34208
  48.27   8.68983E-02  -3.03900E-02   8.14014E-02  -1.25547E-03  0.34972
  48.77   8.61542E-02  -3.07956E-02   8.04522E-02  -1.27345E-03  0.35745
  49.27   8.54120E-02  -3.11976E-02   7.95000E-02  -1.29132E-03  0.36526
  49.78   8.46719E-02  -3.15958E-02   7.85450E-02  -1.30908E-03  0.37316
  50.28   8.39340E-02  -3.19900E-02   7.75873E-02  -1.32672E-03  0.38113
  50.78   8.31985E-02  -3.23802E-02   7.66270E-02  -1.34423E-03  0.38919
  51.28   8.24656E-02  -3.27662E-02   7.56644E-02  -1.36162E-03  0.39733
  51.79   8.17355E-02  -3.31478E-02   7.46995E-02  -1.37886E-03  0.40555
  52.29   8.10084E-02  -3.35249E-02   7.37326E-02  -1.39597E-03  0.41384
  52.79   8.02844E-02  -3.38974E-02   7.27637E-02  -1.41292E-03  0.42222
  53.30   7.95638E-02  -3.42652E-02   7.17931E-02  -1.42972E-03  0.43066
  53.80   7.88466E-02  -3.46280E-02   7.08208E-02  -1.44636E-03  0.43918
  54.30   7.81330E-02  -3.49859E-02   6.98471E-02  -1.46284E-03  0.44777
  54.80   7.74234E-02  -3.53387E-02   6.88721E-02  -1.47914E-03  0.45643
  55.31   7.67176E-02  -3.56862E-02   6.78959E-02  -1.49527E-03  0.46516
  55.81   7.60161E-02  -3.60283E-02   6.69187E-02  -1.51122E-03  0.47396
  56.31   7.53188E-02  -3.63650E-02   6.59407E-02  -1.52698E-03  0.48281
  56.82   7.46260E-02  -3.66961E-02   6.49619E-02  -1.54255E-03  0.49173
  57.32   7.39377E-02  -3.70215E-02   6.39825E-02  -1.55792E-03  0.50071
  57.82   7.32542E-02  -3.73411E-02   6.30028E-02  -1.57309E-03  0.50975
  58.32   7.25756E-02  -3.76549E-02   6.20227E-02  -1.58806E-03  0.51884
  58.83   7.19021E-02  -3.79626E-02   6.10424E-02  -1.60281E-03  0.52798
  59.33   7.12337E-02  -3.82643E-02   6.00622E-02  -1.61735E-03  0.53717
  59.83   7.05706E-02  -3.85597E-02   5.90821E-02  -1.63167E-03  0.54640
  60.34   6.99129E-02  -3.88489E-02   5.81022E-02  -1.64576E-03  0.55568
  60.84   6.92608E-02  -3.91318E-02   5.71228E-02  -1.65963E-03  0.56499
  61.34   6.86144E-02  -3.94082E-02   5.61439E-02  -1.67326E-03  0.57434
  61.84   6.79738E-02  -3.96781E-02   5.51656E-02  -1.68665E-03  0.58373
  62.35   6.73392E-02  -3.99414E-02   5.41882E-02  -1.69980E-03  0.59314
  62.85   6.67105E-02  -4.01980E-02   5.32117E-02  -1.71271E-03  0.60257
  63.35   6.60881E-02  -4.04479E-02   5.22362E-02  -1.72537E-03  0.61203
  63.85   6.54718E-02  -4.06910E-02   5.12619E-02  -1.73777E-03  0.62150
  64.36   6.48620E-02  -4.09272E-02   5.02890E-02  -1.74992E-03  0.63099
  64.86   6.42586E-02  -4.11565E-02   4.93174E-02  -1.76181E-03  0.64048
  65.36   6.36618E-02  -4.13787E-02   4.83475E-02  -1.77343E-03  0.64998
  65.87   6.30716E-02  -4.15940E-02   4.73792E-02  -1.78479E-03  0.65947
  66.37   6.24882E-02  -4.18021E-02   4.64127E-02  -1.79588E-03  0.66896
  66.87   6.19117E-02  -4.20031E-02   4.54481E-02  -1.80669E-03  0.67844
  67.37   6.13420E-02  -4.21969E-02   4.44856E-02  -1.81723E-03  0.68790
  67.88   6.07794E-02  -4.23835E-02   4.35251E-02  -1.82748E-03  0.69733
  68.38   6.02239E-02  -4.25628E-02   4.25670E-02  -1.83746E-03  0.70674
  68.88   5.96755E-02  -4.27347E-02   4.16112E-02  -1.84715E-03  0.71612
  69.39   5.91343E-02  -4.28994E-02   4.06579E-02  -1.85655E-03  0.72546
  69.89   5.86005E-02  -4.30566E-02   3.97072E-02  -1.86567E-03  0.73475
  70.39   5.80740E-02  -4.32065E-02   3.87591E-02  -1.87449E-03  0.74399
  70.89   5.75549E-02  -4.33489E-02   3.78139E-02  -1.88302E-03  0.75318
  71.40   5.70433E-02  -4.34839E-02   3.68716E-02  -1.89125E-03  0.76230
  71.90   5.65393E-02  -4.36115E-02   3.59322E-02  -1.89918E-03  0.77135
  72.40   5.60428E-02  -4.37315E-02   3.49960E-02  -1.90681E-03  0.78032
  72.91   5.55540E-02  -4.38440E-02   3.40629E-02  -1.91414E-03  0.78922
  73.41   5.50728E-02  -4.39491E-02   3.31331E-02  -1.92117E-03  0.79802
  73.91   5.45994E-02  -4.40466E-02   3.22067E-02  -1.92789E-03  0.80672
  74.41   5.41337E-02  -4.41367E-02   3.12838E-02  -1.93430E-03  0.81533
  74.92   5.36759E-02  -4.42192E-02   3.03644E-02  -1.94041E-03  0.82382
  75.42   5.32258E-02  -4.42942E-02   2.94487E-02  -1.94620E-03  0.83219
  75.92   5.27837E-02  -4.43617E-02   2.85367E-02  -1.95169E-03  0.84044
  76.42   5.23494E-02  -4.44217E-02   2.76286E-02  -1.95686E-03  0.84856
  76.93   5.19230E-02  -4.44742E-02   2.67243E-02  -1.96172E-03  0.85654
  77.43   5.15045E-02  -4.45193E-02   2.58241E-02  -1.96627E-03  0.86438
  77.93   5.10940E-02  -4.45569E-02   2.49279E-02  -1.97050E-03  0.87206
  78.44   5.06914E-02  -4.45870E-02   2.40358E-02  -1.97442E-03  0.87958
  78.94   5.02968E-02  -4.46098E-02   2.31479E-02  -1.97803E-03  0.88693
  79.44   4.99102E-02  -4.46251E-02   2.22644E-02  -1.98131E-03  0.89411
  79.94   4.95316E-02  -4.46331E-02   2.13852E-02  -1.98429E-03  0.90110
  80.45   4.91609E-02  -4.46338E-02   2.05104E-02  -1.98694E-03  0.90791
  80.95   4.87983E-02  -4.46271E-02   1.96401E-02  -1.98928E-03  0.91452
  81.45   4.84436E-02  -4.46132E-02   1.87744E-02  -1.99131E-03  0.92093
  81.96   4.80968E-02  -4.45920E-02   1.79133E-02  -1.99302E-03  0.92713
  82.46   4.77581E-02  -4.45636E-02   1.70569E-02  -1.99441E-03  0.93311
  82.96   4.74273E-02  -4.45281E-02   1.62053E-02  -1.99549E-03  0.93887
  83.46   4.71044E-02  -4.44855E-02   1.53585E-02  -1.99625E-03  0.94440
  83.97   4.67895E-02  -4.44358E-02   1.45165E-02  -1.99670E-03  0.94970
  84.47   4.64824E-02  -4.43790E-02   1.36795E-02  -1.99683E-03  0.95475
  84.97   4.61833E-02  -4.43153E-02   1.28475E-02  -1.99665E-03  0.95955
  85.47   4.58920E-02  -4.42447E-02   1.20204E-02  -1.99616E-03  0.96411
  85.98   4.56085E-02  -4.41673E-02   1.11985E-02  -1.99536E-03  0.96840
  86.48   4.53328E-02  -4.40830E-02   1.03817E-02  -1.99425E-03  0.97243
  86.98   4.50649E-02  -4.39919E-02   9.57009E-03  -1.99283E-03  0.97619
  87.49   4.48047E-02  -4.38942E-02   8.76369E-03  -1.99110E-03  0.97968
  87.99   4.45523E-02  -4.37898E-02   7.96256E-03  -1.98907E-03  0.98289
  88.49   4.43075E-02  -4.36789E-02   7.16675E-03  -1.98673E-03  0.98581
  88.99   4.40703E-02  -4.35614E-02   6.37629E-03  -1.98409E-03  0.98845
  89.50   4.38407E-02  -4.34375E-02   5.59121E-03  -1.98114E-03  0.99080
  90.00   4.36186E-02  -4.33073E-02   4.81156E-03  -1.97790E-03  0.99286
  90.50   4.34041E-02  -4.31708E-02   4.03738E-03  -1.97436E-03  0.99462
  91.01   4.31969E-02  -4.30280E-02   3.26870E-03  -1.97052E-03  0.99609
  91.51   4.29972E-02  -4.28791E-02   2.50554E-03  -1.96639E-03  0.99725
  92.01   4.28048E-02  -4.27241E-02   1.74795E-03  -1.96196E-03  0.99811
  92.51   4.26197E-02  -4.25631E-02   9.95941E-04  -1.95724E-03  0.99867
  93.02   4.24418E-02  -4.23961E-02   2.49554E-04  -1.95224E-03  0.99892
  93.52   4.22711E-02  -4.22234E-02  -4.91188E-04  -1.94695E-03  0.99887
  94.02   4.21075E-02  -4.20448E-02  -1.22626E-03  -1.94137E-03  0.99851
  94.53   4.19510E-02  -4.18606E-02  -1.95564E-03  -1.93552E-03  0.99785
  95.03   4.18014E-02  -4.16708E-02  -2.67931E-03  -1.92939E-03  0.99688
  95.53   4.16588E-02  -4.14755E-02  -3.39724E-03  -1.92298E-03  0.99560
  96.03   4.15231E-02  -4.12747E-02  -4.10942E-03  -1.91629E-03  0.99402
  96.54   4.13941E-02  -4.10686E-02  -4.81582E-03  -1.90934E-03  0.99214
  97.04   4.12719E-02  -4.08573E-02  -5.51644E-03  -1.90212E-03  0.98995
  97.54   4.11563E-02  -4.06408E-02  -6.21126E-03  -1.89463E-03  0.98747
  98.04   4.10473E-02  -4.04191E-02  -6.90026E-03  -1.88688E-03  0.98470
  98.55   4.09448E-02  -4.01926E-02  -7.58343E-03  -1.87888E-03  0.98163
  99.05   4.08488E-02  -3.99611E-02  -8.26077E-03  -1.87061E-03  0.97827
  99.55   4.07592E-02  -3.97248E-02  -8.93225E-03  -1.86210E-03  0.97462
 100.06   4.06758E-02  -3.94838E-02  -9.59788E-03  -1.85333E-03  0.97069
 100.56   4.05987E-02  -3.92381E-02  -1.02576E-02  -1.84432E-03  0.96649
 101.06   4.05277E-02  -3.89880E-02  -1.09115E-02  -1.83506E-03  0.96201
 101.56   4.04627E-02  -3.87334E-02  -1.15596E-02  -1.82557E-03  0.95726
 102.07   4.04038E-02  -3.84745E-02  -1.22017E-02  -1.81583E-03  0.95225
 102.57   4.03507E-02  -3.82113E-02  -1.28380E-02  -1.80587E-03  0.94698
 103.07   4.03035E-02  -3.79440E-02  -1.34684E-02  -1.79568E-03  0.94146
 103.58   4.02620E-02  -3.76727E-02  -1.40929E-02  -1.78526E-03  0.93569
 104.08   4.02261E-02  -3.73974E-02  -1.47115E-02  -1.77461E-03  0.92968
 104.58   4.01959E-02  -3.71182E-02  -1.53243E-02  -1.76375E-03  0.92343
 105.08   4.01711E-02  -3.68353E-02  -1.59312E-02  -1.75268E-03  0.91696
 105.59   4.01517E-02  -3.65488E-02  -1.65322E-02  -1.74139E-03  0.91027
 106.09   4.01376E-02  -3.62587E-02  -1.71274E-02  -1.72990E-03  0.90336
 106.59   4.01288E-02  -3.59651E-02  -1.77167E-02  -1.71820E-03  0.89624
 107.09   4.01251E-02  -3.56682E-02  -1.83001E-02  -1.70631E-03  0.88892
 107.60   4.01265E-02  -3.53680E-02  -1.88777E-02  -1.69421E-03  0.88141
 108.10   4.01329E-02  -3.50647E-02  -1.94495E-02  -1.68193E-03  0.87372
 108.60   4.01441E-02  -3.47583E-02  -2.00155E-02  -1.66946E-03  0.86584
 109.11   4.01601E-02  -3.44489E-02  -2.05757E-02  -1.65681E-03  0.85779
 109.61   4.01808E-02  -3.41367E-02  -2.11301E-02  -1.64398E-03  0.84958
 110.11   4.02062E-02  -3.38218E-02  -2.16787E-02  -1.63097E-03  0.84121
 110.61   4.02361E-02  -3.35042E-02  -2.22215E-02  -1.61779E-03  0.83269
 111.12   4.02704E-02  -3.31840E-02  -2.27586E-02  -1.60444E-03  0.82403
 111.62   4.03090E-02  -3.28613E-02  -2.32899E-02  -1.59094E-03  0.81523
 112.12   4.03520E-02  -3.25363E-02  -2.38156E-02  -1.57727E-03  0.80631
 112.63   4.03991E-02  -3.22091E-02  -2.43355E-02  -1.56345E-03  0.79727
 113.13   4.04503E-02  -3.18797E-02  -2.48497E-02  -1.54948E-03  0.78812
 113.63   4.05054E-02  -3.15482E-02  -2.53583E-02  -1.53536E-03  0.77886
 114.13   4.05645E-02  -3.12147E-02  -2.58613E-02  -1.52111E-03  0.76951
 114.64   4.06274E-02  -3.08794E-02  -2.63586E-02  -1.50671E-03  0.76006
 115.14   4.06940E-02  -3.05424E-02  -2.68503E-02  -1.49219E-03  0.75054
 115.64   4.07642E-02  -3.02036E-02  -2.73364E-02  -1.47753E-03  0.74093
 116.15   4.08380E-02  -2.98633E-02  -2.78170E-02  -1.46276E-03  0.73126
 116.65   4.09152E-02  -2.95215E-02  -2.82920E-02  -1.44786E-03  0.72153
 117.15   4.09958E-02  -2.91784E-02  -2.87616E-02  -1.43285E-03  0.71174
 117.65   4.10797E-02  -2.88339E-02  -2.92256E-02  -1.41773E-03  0.70190
 118.16   4.11667E-02  -2.84883E-02  -2.96842E-02  -1.40250E-03  0.69202
 118.66   4.12569E-02  -2.81416E-02  -3.01373E-02  -1.38717E-03  0.68211
 119.16   4.13501E-02  -2.77939E-02  -3.05851E-02  -1.37175E-03  0.67216
 119.66   4.14461E-02  -2.74453E-02  -3.10274E-02  -1.35623E-03  0.66219
 120.17   4.15450E-02  -2.70959E-02  -3.14644E-02  -1.34062E-03  0.65220
 120.67   4.16467E-02  -2.67457E-02  -3.18960E-02  -1.32493E-03  0.64221
 121.17   4.17510E-02  -2.63950E-02  -3.23224E-02  -1.30917E-03  0.63220
 121.68   4.18579E-02  -2.60437E-02  -3.27435E-02  -1.29333E-03  0.62219
 122.18   4.19672E-02  -2.56920E-02  -3.31593E-02  -1.27741E-03  0.61219
 122.68   4.20790E-02  -2.53400E-02  -3.35699E-02  -1.26144E-03  0.60220
 123.18   4.21931E-02  -2.49877E-02  -3.39753E-02  -1.24540E-03  0.59222
 123.69   4.23094E-02  -2.46352E-02  -3.43756E-02  -1.22931E-03  0.58226
 124.19   4.24278E-02  -2.42827E-02  -3.47707E-02  -1.21316E-03  0.57233
 124.69   4.25483E-02  -2.39301E-02  -3.51607E-02  -1.19697E-03  0.56242
 125.20   4.26708E-02  -2.35777E-02  -3.55457E-02  -1.18074E-03  0.55255
 125.70   4.27951E-02  -2.32255E-02  -3.59256E-02  -1.16446E-03  0.54271
 126.20   4.29213E-02  -2.28735E-02  -3.63005E-02  -1.14816E-03  0.53292
 126.70   4.30492E-02  -2.25219E-02  -3.66704E-02  -1.13182E-03  0.52317
 127.21   4.31788E-02  -2.21707E-02  -3.70354E-02  -1.11546E-03  0.51346
 127.71   4.33099E-02  -2.18201E-02  -3.73955E-02  -1.09908E-03  0.50381
 128.21   4.34425E-02  -2.14701E-02  -3.77507E-02  -1.08268E-03  0.49422
 128.72   4.35765E-02  -2.11207E-02  -3.81010E-02  -1.06627E-03  0.48468
 129.22   4.37118E-02  -2.07722E-02  -3.84465E-02  -1.04986E-03  0.47521
 129.72   4.38484E-02  -2.04245E-02  -3.87873E-02  -1.03344E-03  0.46580
 130.22   4.39861E-02  -2.00777E-02  -3.91233E-02  -1.01703E-03  0.45646
 130.73   4.41250E-02  -1.97320E-02  -3.94545E-02  -1.00062E-03  0.44718
 131.23   4.42648E-02  -1.93873E-02  -3.97811E-02  -9.84216E-04  0.43798
 131.73   4.44056E-02  -1.90438E-02  -4.01031E-02  -9.67832E-04  0.42886
 132.23   4.45473E-02  -1.87016E-02  -4.04204E-02  -9.51467E-04  0.41981
 132.74   4.46898E-02  -1.83607E-02  -4.07331E-02  -9.35125E-04  0.41085
 133.24   4.48330E-02  -1.80212E-02  -4.10413E-02  -9.18810E-04  0.40196
 133.74   4.49768E-02  -1.76831E-02  -4.13449E-02  -9.02528E-04  0.39316
 134.25   4.51212E-02  -1.73466E-02  -4.16441E-02  -8.86282E-04  0.38445
 134.75   4.52661E-02  -1.70118E-02  -4.19388E-02  -8.70077E-04  0.37582
 135.25   4.54115E-02  -1.66786E-02  -4.22291E-02  -8.53916E-04  0.36728
